1.862651896999759360e-01
-4.171357061561844354e-02
-3.717173835156878381e-03
3.842623903453539214e-01
2.787958255920935935e-01
2.707062610314855955e-02
5.304028636704627431e-01
1.410480083117860994e-01
4.794089202045662690e-01
1.752288403642408288e-01
1.033505945829246708e-01
6.016326836466343586e-01
6.121733762524868006e-01
3.487054455767149008e-01
4.894495802904647586e-01
6.726026622340934846e-01
2.568782939580880886e-01
6.965576072112587003e-01
3.460668983666482790e-01
4.139916920568483816e-01
7.465075503883878971e-01
8.407028663005451374e-01
3.818809444938481290e-01
5.882494214907053598e-01
6.574682341306528066e-01
6.529245004504496963e-01
5.425518311930750404e-01
7.011793036603515272e-01
3.103387456649927545e-01
4.912657675200516327e-01
5.042352616791746511e-01
6.470322576189934116e-01
8.061060659773919834e-01
4.374308653129205804e-01
6.744197506025914057e-01
8.073983227875799473e-01
4.380461924051026190e-01
2.791994130606348379e-01
9.529133052518166114e-01
5.101932910714902514e-01
4.021739896614487941e-01
4.299301618815279946e-01
4.512558533956081974e-01
2.095476745301772525e-01
3.518331446307828569e-01
3.359975471086443233e-02
3.156061732157504629e-01
3.489475143066067542e-01
1.274947773966815801e-01
1.464261461985563728e-01
7.892599113958199963e-02
-7.764438224053096804e-02
1.355852965928018850e-01
-5.516783703693915741e-02
-6.750255897806664018e-01
-6.385737475450103950e-02
-1.566209724839243700e-01
-3.323736516040206590e-01
-2.462941385036117314e-01
-4.825474097050248545e-01
-3.479802952222703083e-01
-4.558856554168508324e-01
-4.563929224090369496e-01
-5.715662296845381851e-01
-4.497899834260015162e-01
-1.377192377076727481e-01
-4.280834006091080446e-01
-3.877274133283868940e-01
-2.403536299065298643e-01
-3.930722690194108360e-01
-5.762935215043032411e-01
-5.873493614883267266e-01
-3.502089854621783793e-01
-8.323355061316209946e-01
-7.171573297145102943e-01
-5.796759363224134320e-01
-7.016317051588903952e-01
-6.808250318119862809e-01
-6.841875478327331672e-01
-7.578514499799176019e-01
-2.254447667703812219e-01
-5.696912805725529161e-01
-5.907221063433087949e-01
-3.217159199530874591e-01
-4.613370177330797794e-01
-8.420606493679377857e-02
7.697749172619500202e-02
-1.894746421064209818e-01
-9.368146329492499369e-02
-3.684753891574397144e-01
-5.987058356233783130e-01
-2.037260226122349915e-01
-1.835995444046289449e-01
-1.078951639990037847e-01
-2.586340507415620937e-01
-7.228455283951965016e-02
-3.849667578454594175e-01
9.289835104444102432e-03
-1.532872302840254108e-01
8.185956859093740379e-02
-1.277273229847117886e-01
-4.479642561757202213e-03
-1.131432377120157873e-01
2.725817325236239985e-01
4.532129554265302840e-01
5.919854495896097468e-01
8.812605088249098051e-02
2.292571719853843670e-01
4.209230775891811271e-01
4.673199116348446536e-01
3.146498983509887215e-01
2.093044148382043057e-01
5.470076141579904849e-01
4.050908868513177774e-01
5.183554814465396454e-01
3.044609800005471101e-01
5.239971850647927587e-01
5.781128626945013504e-01
5.947961635468292929e-01
4.737435210434924882e-01
7.188429197950670924e-01
7.162833040276098684e-01
4.911981966764732976e-01
5.660613993523389009e-01
9.629816455827275856e-01
4.412093298214784243e-01
8.427302324295323777e-01
4.537649080014798386e-01
5.724474861950743509e-01
3.789058141855803363e-01
6.881514058842419512e-01
4.562646259670838367e-01
4.918372293623298752e-01
7.032941052647471158e-01
4.318039379419424395e-01
2.148257990718013266e-01
3.553877186416010137e-01
2.058878634399649576e-01
4.441874872443241085e-01
3.950204711509611166e-01
3.397819777015234077e-01
1.555834111244984719e-01
5.752551601144110238e-01
4.349621931852571954e-01
-1.310332130217434499e-01
3.588981705317215165e-01
4.204454864252393231e-01
3.594802319524663115e-01
1.624206858806797049e-01
-7.093607003777019360e-02
1.741668114006950374e-01
-2.869881573680498343e-01
-1.555610331460822726e-01
-3.646418432573955704e-01
-1.664727836074526846e-01
-1.578039118845050159e-01
-2.412116889292048594e-01
1.011552483070624064e-01
-4.085974297599779814e-01
-8.603524929076964423e-01
-4.020265470798097818e-01
-1.990402915673969431e-01
-3.029261489240256955e-01
-4.931841224879346397e-01
-4.840521415651833914e-01
-6.026563630580457076e-01
-6.183164193102258510e-01
-5.209229388294713825e-01
-4.543468856090006613e-01
-5.987368816377525160e-01
-6.058379855753265320e-01
-3.840113043860355346e-01
-8.891375050426950644e-01
-5.329366991980066803e-01
1.785467321874878444e-02
-2.106128056443243857e-01
-9.614455587536291370e-01
-3.217215669732009231e-01
-1.094928680115502040e+00
-3.394225208413095274e-01
-1.388102931607577140e-01
-5.470346720581744648e-01
-1.006028901863507685e-01
-8.342521244097137467e-01
-4.210104805125613470e-01
-1.719475682133483341e-01
-5.570427498633547803e-01
-1.580377078636412413e-01
-3.656212985033163720e-01
-5.000467434319104676e-01
-6.005460296900650974e-01
-2.388240191754309460e-02
-5.028021850978814378e-01
1.233863592786149099e-01
-5.407725022103149204e-01
-3.345215842080448976e-01
-2.199569213234187637e-01
-2.111792994606291329e-01
-3.074630912097818247e-01
1.663170856522736551e-01
-1.683884062241364499e-01
1.017100373972640859e-01
4.118177317642232604e-01
-3.092356575472671731e-01
4.271582127433850573e-01
3.960137553708703573e-02
1.999566923749935277e-01
1.960539177085453832e-01
1.035356390828033601e-01
2.828648160892319741e-01
1.077430061395022731e-01
5.995307727345652316e-01
4.887814287244215961e-01
6.692656701332795333e-01
7.149572612580694653e-01
6.407172486675744016e-01
2.919225169685168986e-01
5.635829549417488149e-01
4.574926592618308585e-01
8.132125494964909107e-01
7.396105855064842860e-01
4.033410524338820746e-01
5.039908179513316044e-01
4.684943814028351694e-01
9.808515437166209772e-02
6.830001018033111659e-01
9.830927982050338132e-01
8.041345595815574399e-01
6.221065854596908862e-01
4.960769909892487894e-01
5.490174472197721922e-01
5.937957906697586274e-01
3.445313832841254142e-01
3.621795884038185864e-01
4.573955399344977746e-01
5.754172694526963339e-01
3.738905812609117918e-01
3.712674926936445075e-01
-3.037504307174532237e-04
3.664653990403832218e-02
1.782361128282350382e-01
3.816825346919315298e-01
4.133160190302740955e-01
1.340805518295021537e-01
2.761575813783437860e-01
1.697161383831100046e-01
-2.055402426363863999e-01
4.004709654112829226e-02
-6.496337400288758335e-02
2.331192241111276209e-01
-7.280867353503242545e-02
-4.180644953676956876e-01
1.468486253097922856e-01
-3.085196430027989933e-01
2.074026762111547129e-02
-3.959603328927585597e-02
-2.214590336137493287e-01
-3.490042662690919784e-01
-2.228520139390511023e-01
-3.188907439892371132e-01
-3.633997339257795667e-01
-3.060924950738679873e-01
-7.398949659121167866e-01
-7.585393133004694199e-01
-2.868865059112190030e-01
-2.684208627240445288e-01
-6.608554587704903449e-01
-3.659669603925449488e-01
-7.004048275066312446e-01
-4.742748468203473733e-01
-6.687919461944311639e-01
-6.234719706003761797e-01
-3.208243271425252341e-01
-1.356006222419943175e-01
-8.043820754960673280e-01
-8.850097474089178018e-01
-3.497750180592983926e-01
-4.276513554143969165e-01
-3.125498533779240140e-01
-3.091381730509476511e-01
-3.082679112976028368e-01
-5.833158212562546963e-01
-6.403333992620837689e-01
-5.387003410258139890e-01
-3.758224516373807611e-01
-7.273553360479734220e-01
-2.527858579562355379e-01
-2.263644222756670543e-01
-4.027606856297550886e-01
-5.194293923591710715e-01
-4.718536873559111555e-01
-4.069633617622860355e-01
1.105795206927299157e-01
-4.267158707131730178e-01
-2.073721987334740946e-01
-2.501804538532845790e-01
-3.267796370655363658e-01
-7.981863671880594369e-02
-1.717134955747142699e-01
-1.857822885787988043e-01
-6.767669155781089185e-02
1.437628566512030304e-01
2.626347739617632127e-01
4.087331133062825916e-01
-3.872182645306199156e-03
5.471275890414187826e-01
2.382790156005016036e-01
3.815632476499288828e-01
3.401516918159170899e-01
4.414257754757120455e-01
5.794721943455405366e-01
1.259156094040732587e-01
1.203253281799180896e-01
1.113601137813099440e+00
5.793831190376527163e-01
4.549360624833492794e-01
5.090180510291231197e-01
5.570772981281426617e-01
-7.076116985015212801e-02
4.523351571525081050e-01
4.947347084227416980e-01
7.337994444344515532e-01
4.631627431371002634e-01
9.579101051144598422e-01
4.470895541454515953e-01
3.337253319832184650e-01
5.377297645957499483e-01
6.706109121484125080e-01
6.183902451778425791e-01
6.004599860273014400e-01
3.304283738412407967e-01
6.646153048390303075e-01
2.609792396608909826e-01
5.939973750802869379e-01
3.409756937032916713e-01
2.640654384117383513e-01
4.358701913760705260e-01
3.894807808820174300e-01
3.899846340233826814e-01
2.291582097887308322e-01
2.480261972056155284e-01
2.615931971197498762e-01
1.986175907119412665e-01
3.708284194940897338e-02
1.317803174676528410e-01
7.024288992604571513e-03
-1.535001976831119885e-01
-2.566689714540805745e-01
5.584708257861240727e-02
-1.283347320877103737e-01
-4.064970533593916802e-01
-4.990320328451714471e-01
-3.893123378928502465e-01
-5.670865880470680187e-01
-2.958227906919491668e-01
-7.295554521876245202e-01
-8.568162801414519469e-02
-3.342616978988740550e-01
-2.884143211647681171e-01
-7.617688138238101203e-01
-7.240995591497125794e-01
-3.980035456420277784e-01
-6.032498697796674358e-01
-5.535765470746988326e-01
-2.316602561651475156e-01
-7.840127033525601252e-02
-4.804764275473933921e-01
-6.721232103285125214e-01
-2.813339719258762250e-01
-7.025535699324787497e-01
-6.397221411615752196e-01
-7.655136184808082334e-01
-6.160991443369220333e-01
-1.984762357129179478e-01
-3.536798645024384902e-01
-3.663143637854600065e-01
-9.240466942772054271e-01
-6.889583148935937151e-01
-4.903225956508900363e-01
-5.857995742546466822e-01
-7.167428697434082840e-01
-8.095706000572333583e-01
-4.198946871382319146e-01
-2.792573407031067600e-01
-5.131532188226988200e-01
-2.293174861000319698e-01
-3.015750444061018332e-01
-5.426721668508980301e-01
-6.203895962724248481e-01
-2.475289315011350300e-01
5.988333315140231816e-02
-2.015901121908044158e-01
-2.417593578886932937e-01
-1.017007680690995841e-01
-5.745557420486053779e-01
-9.616051046104301392e-03
-3.402503509666088277e-03
-3.195135770639977446e-01
2.080803870615606510e-03
8.908989447536869166e-02
-1.377693240217747195e-01
-3.266346369711710107e-01
5.901502013562507365e-01
1.370701642611390769e-01
9.007149449407324260e-02
1.744462981839361160e-01
2.494893522301186162e-01
-5.203016516501596245e-02
4.181307580329190476e-01
3.942147107444395893e-01
-1.830253156504235701e-01
3.492880810176179907e-02
5.889111864499376736e-01
6.549040245068271648e-01
-2.014757509716663675e-02
7.229730265564937586e-01
6.319235279591854937e-01
4.267813903619750437e-01
5.877358624861340752e-01
2.877100293252550234e-01
2.130458049287667355e-01
6.576993853238564114e-01
6.594396130121158439e-01
7.476228736238486050e-01
7.228904028797483727e-01
3.754032593539489149e-01
5.175331937664013893e-01
5.418825289147323199e-01
7.316091648102021061e-01
5.555682376911118547e-01
4.867052734969998795e-01
4.703829040279863261e-01
6.516558063491424413e-01
5.050166011327682503e-01
5.923503570583127376e-01
6.721826753595272486e-01
1.848437360010929953e-01
1.099430306013878811e-01
8.974581656547320208e-02
4.470542653199977567e-01
1.779607037721767093e-01
4.705289135767198871e-02
4.131036455241889338e-01
2.856851694393433005e-01
5.186740030068115459e-01
-1.921264831347821445e-02
6.484841080524894608e-02
-4.468150336383674981e-03
-5.172409172707905650e-02
-5.589415365634555974e-03
-2.125827644885380230e-01
-1.479842374923314718e-01
-1.333967309692087877e-01
-2.010085388612337098e-01
-2.635085670570572192e-02
1.345224902048111904e-01
-2.210012916585981924e-01
-4.484170329369108199e-01
-4.994507832732364427e-03
-4.479895058802678687e-01
-4.566599511235032161e-01
-3.635993888637421567e-01
-2.038448939059536447e-01
-6.381107770790011013e-01
-1.068656927360747355e+00
-6.947362167261942334e-01
-3.762486908131923435e-01
-4.909872896347558524e-01
-5.633531722571869516e-01
-7.914065129146625743e-01
-7.208653340986043156e-01
-7.681110739781729091e-01
-6.914165110119780966e-01
-5.640534445588218926e-01
-9.849560045965750632e-01
-4.629037751381227528e-01
-7.391432273642156714e-01
-5.096439411746542802e-01
-4.919463519367239246e-01
-4.561320813540931107e-01
-7.124015925632629642e-01
-4.630362258881491888e-01
-7.390202566714583199e-01
-3.997645700411853742e-01
-7.887896180099518428e-01
-5.301909943448691598e-01
-4.881237292929316296e-01
-5.981836475574264789e-02
-4.034809655206726964e-01
-5.409318199913082381e-01
-3.885027155223739204e-01
1.641339264717469604e-01
-3.146706507744844172e-01
-8.677075265922015168e-01
-1.370360711675982224e-01
1.548034181903762407e-02
-5.891483281517516379e-02
7.735408348420470814e-02
7.624690742610844285e-03
1.671822730638286847e-01
